; File: SEGS.TBL
; Created by program SegField from data in file:
;MODE763.SFO  01-06-2021  19:17:21

Center
Title
Fields and power on segments   2 through   7

Abscissa  3
Xscale       0.00000     26.18604
Ordinate 4 5 7
Titles
Z
R
S
Electric field
Magnetic field
Power density
Radiation pressure
EndTitles

AxisLabels
Z (cm)
R (cm)
S (cm)
E (MV/m)
H (kA/m)
Power density (W/cm^2)
Radiation pressure (kPa)
EndLabels

CurveLabels
Z
R
S
E
H
P.D.
P (kPa)
EndLabels

Data
;  Z       R         S         E         H         P.D.      P (kPa)
0.000000  16.24000   0.00000   0.00000   71.3099  1832.389    1.59753
0.093119  16.24000   0.09312   0.06442   71.3052  1832.151    1.59731
0.186238  16.24000   0.18624   0.13337   71.3052  1832.151    1.59728
0.279356  16.24000   0.27936   0.20005   71.2960  1831.675    1.59682
0.372475  16.24000   0.37248   0.26674   71.2867  1831.200    1.59634
0.465594  16.24000   0.46559   0.34165   71.2775  1830.724    1.59582
0.558712  16.24000   0.55871   0.40998   71.2636  1830.010    1.59508
0.651831  16.24000   0.65183   0.47747   71.2451  1829.059    1.59412
0.744950  16.24000   0.74495   0.54609   71.2219  1827.871    1.59293
0.838069  16.24000   0.83807   0.61461   71.1988  1826.683    1.59172
0.931187  16.24000   0.93119   0.68310   71.1756  1825.495    1.59049
1.024310  16.24000   1.02431   0.75167   71.1478  1824.070    1.58903
1.117420  16.24000   1.11742   0.82006   71.1154  1822.409    1.58734
1.210540  16.24000   1.21054   0.88840   71.0830  1820.748    1.58563
1.303660  16.24000   1.30366   0.95665   71.0460  1818.851    1.58370
1.396780  16.24000   1.39678   1.02309   71.0089  1816.955    1.58176
1.489900  16.24000   1.48990   1.09477   70.9672  1814.823    1.57956
1.588850  16.23820   1.58887   1.16913   70.9256  1812.692    1.57733
1.687800  16.23640   1.68783   1.24937   70.8839  1810.562    1.57505
1.786580  16.23110   1.78675   1.33239   70.8515  1808.907    1.57313
1.885360  16.22580   1.88568   1.41842   70.8191  1807.252    1.57116
1.983800  16.21690   1.98452   1.51019   70.7959  1806.071    1.56954
2.082240  16.20800   2.08336   1.60145   70.7681  1804.654    1.56767
2.180170  16.19560   2.18207   1.69957   70.7543  1803.945    1.56634
2.278110  16.18320   2.28079   1.79490   70.7357  1803.001    1.56478
2.375380  16.16740   2.37934   1.89195   70.7265  1802.529    1.56357
2.472650  16.15150   2.47790   1.98613   70.7172  1802.057    1.56235
2.569090  16.13220   2.57625   2.08980   70.7172  1802.057    1.56142
2.665540  16.11290   2.67461   2.18972   70.7126  1801.821    1.56027
2.761000  16.09020   2.77274   2.29149   70.7172  1802.057    1.55946
2.856460  16.06750   2.87086   2.39359   70.7218  1802.293    1.55861
2.950800  16.04150   2.96871   2.50541   70.7311  1802.765    1.55781
3.045140  16.01550   3.06657   2.61061   70.7404  1803.237    1.55703
3.138210  15.98630   3.16412   2.73164   70.7589  1804.182    1.55642
3.231280  15.95700   3.26169   2.83739   70.7728  1804.890    1.55574
3.322950  15.92460   3.35892   2.94537   70.7959  1806.071    1.55538
3.414620  15.89220   3.45614   3.05362   70.8191  1807.252    1.55498
3.504760  15.85670   3.55302   3.16892   70.8469  1808.671    1.55462
3.594900  15.82120   3.64990   3.28120   70.8746  1810.089    1.55426
3.683400  15.78270   3.74641   3.41024   70.9117  1811.982    1.55400
3.771890  15.74420   3.84291   3.52216   70.9395  1813.402    1.55352
3.858630  15.70280   3.93903   3.63666   70.9811  1815.533    1.55356
3.945370  15.66140   4.03514   3.75158   71.0182  1817.428    1.55333
4.030260  15.61720   4.13085   3.86576   71.0645  1819.799    1.55347
4.115140  15.57300   4.22655   3.98712   71.1061  1821.934    1.55323
4.198070  15.52610   4.32182   4.11158   71.1571  1824.545    1.55327
4.281000  15.47920   4.41709   4.23660   71.2034  1826.920    1.55303
4.361890  15.42960   4.51198   4.35532   71.2589  1829.773    1.55326
4.442780  15.38010   4.60681   4.48140   71.3099  1832.389    1.55308
4.521550  15.32800   4.70125   4.61100   71.3701  1835.484    1.55317
4.600320  15.27600   4.79564   4.74134   71.4256  1838.343    1.55296
4.676910  15.22150   4.88964   4.85755   71.4905  1841.681    1.55340
4.753490  15.16710   4.98358   4.98350   71.5506  1844.784    1.55336
4.827820  15.11030   5.07713   5.11407   71.6201  1848.367    1.55357
4.902150  15.05350   5.17067   5.24510   71.6803  1851.475    1.55327
4.974160  14.99460   5.26370   5.39512   71.7544  1855.304    1.55308
5.046180  14.93560   5.35681   5.53171   71.8192  1858.658    1.55270
5.115830  14.87450   5.44946   5.66645   71.8933  1862.494    1.55270
5.185480  14.81340   5.54211   5.80119   71.9627  1866.095    1.55242
5.252720  14.75030   5.63432   5.94056   72.0415  1870.179    1.55236
5.319950  14.68720   5.72652   6.08132   72.1155  1874.028    1.55197
5.384740  14.62220   5.81830   6.23921   72.1942  1878.121    1.55123
5.449530  14.55720   5.91007   6.38552   72.2683  1881.977    1.55051
5.511820  14.49040   6.00141   6.53276   72.3517  1886.321    1.55008
5.574120  14.42360   6.09275   6.67908   72.4304  1890.427    1.54938
5.633900  14.35510   6.18367   6.83095   72.5137  1894.780    1.54864
5.693680  14.28660   6.27459   6.98467   72.5971  1899.138    1.54774
5.750910  14.21640   6.36516   7.13469   72.6804  1903.501    1.54685
5.808140  14.14630   6.45565   7.28980   72.7638  1907.869    1.54571
5.862790  14.07460   6.54581   7.44631   72.8517  1912.486    1.54463
5.917450  14.00290   6.63597   7.61207   72.9351  1916.864    1.54292
5.969520  13.92980   6.72571   7.79681   73.0231  1921.491    1.54065
6.021580  13.85670   6.81546   7.97369   73.1064  1925.879    1.53830
6.071040  13.78220   6.90488   8.14315   73.1944  1930.517    1.53630
6.120500  13.70780   6.99422   8.31215   73.2777  1934.916    1.53398
6.167330  13.63200   7.08332   8.48810   73.3703  1939.810    1.53170
6.214160  13.55630   7.17233   8.66637   73.4537  1944.219    1.52878
6.258350  13.47930   7.26111   8.84417   73.5416  1948.879    1.52595
6.302550  13.40240   7.34981   9.02752   73.6250  1953.299    1.52255
6.344090  13.32440   7.43818   9.20995   73.7130  1957.970    1.51926
6.385640  13.24630   7.52665   9.40396   73.7963  1962.400    1.51512
6.424530  13.16730   7.61470   9.60028   73.8843  1967.081    1.51095
6.463420  13.08820   7.70284   9.80401   73.9676  1971.522    1.50607
6.499640  13.00820   7.79066  10.01607   74.0510  1975.967    1.50064
6.535870  12.92820   7.87848  10.23045   74.1297  1980.170    1.49470
6.569420  12.84730   7.96606  10.43974   74.2130  1984.625    1.48900
6.602980  12.76640   8.05365  10.67078   74.2917  1988.838    1.48188
6.633860  12.68470   8.14099  10.88979   74.3658  1992.806    1.47489
6.664740  12.60310   8.22824  11.12871   74.4399  1996.778    1.46671
6.692950  12.52060   8.31543  11.35096   74.5140  2000.755    1.45911
6.721150  12.43820   8.40252  11.59960   74.5788  2004.237    1.44952
6.746680  12.35520   8.48936  11.82926   74.6483  2007.972    1.44086
6.772200  12.27210   8.57629  12.08717   74.7131  2011.461    1.43025
6.795040  12.18840   8.66305  12.34183   74.7733  2014.703    1.41931
6.817880  12.10480   8.74971  12.61594   74.8288  2017.699    1.40678
6.838040  12.02060   8.83629  12.90023   74.8798  2020.446    1.39312
6.858190  11.93640   8.92287  13.18777   74.9307  2023.196    1.37891
6.875660  11.85180   9.00925  13.46558   74.9770  2025.697    1.36470
6.893130  11.76720   9.09564  13.78136   75.0140  2027.699    1.34740
6.907910  11.68220   9.18191  14.08464   75.0465  2029.452    1.33022
6.922700  11.59710   9.26829  14.42264   75.0742  2030.955    1.31020
6.934790  11.51180   9.35444  14.77037   75.0928  2031.957    1.28860
6.946890  11.42650   9.44060  15.12088   75.1067  2032.709    1.26607
6.956300  11.34090   9.52671  15.49639   75.1159  2033.210    1.24106
6.965710  11.25530   9.61283  15.90431   75.1113  2032.959    1.21248
6.972430  11.16950   9.69889  16.32057   75.0974  2032.207    1.18214
6.979150  11.08380   9.78485  16.73868   75.0742  2030.955    1.15045
6.983180  10.99780   9.87095  17.29847   75.0418  2029.201    1.10674
6.987210  10.91190   9.95694  17.81150   74.9863  2026.197    1.06425
6.988560  10.82600  10.04285  18.38888   74.9261  2022.946    1.01515
6.989900  10.74000  10.12886  18.95608   74.8427  2018.448    0.96434
6.989900  10.65390  10.21496  19.52421   74.7409  2012.957    0.91116
6.989900  10.56780  10.30106  20.09048   74.6205  2006.478    0.85586
6.989900  10.48170  10.38716  20.79104   74.4862  1999.263    0.78617
6.989900  10.39560  10.47326  21.33323   74.3288  1990.821    0.72826
6.989900  10.30940  10.55946  21.87312   74.1575  1981.655    0.66863
6.989900  10.22330  10.64556  22.41161   73.9722  1971.769    0.60723
6.989900  10.13720  10.73166  22.96770   73.7639  1960.676    0.54170
6.989900  10.05110  10.81776  23.47702   73.5416  1948.879    0.47905
6.989900   9.96500  10.90386  23.98496   73.3055  1936.384    0.41479
6.989900   9.87889  10.98997  24.49104   73.0555  1923.197    0.34899
6.989900   9.79278  11.07608  25.00962   72.7869  1909.084    0.27986
6.989900   9.70667  11.16219  25.50737   72.5091  1894.538    0.21152
6.989900   9.62056  11.24830  26.00326   72.2081  1878.844    0.14130
6.989900   9.53444  11.33442  26.49684   71.8979  1862.734    0.06989
6.989900   9.44833  11.42053  27.01497   71.5692  1845.739   -0.00630
6.989900   9.36222  11.50664  27.51410   71.2265  1828.108   -0.08191
6.989900   9.27611  11.59275  28.01092   70.8700  1809.853   -0.15889
6.989900   9.19000  11.67886  28.50497   70.4950  1790.748   -0.23735
6.989900   9.10389  11.76497  29.04670   70.1060  1771.042   -0.32355
6.989900   9.01778  11.85108  29.56204   69.6986  1750.516   -0.40830
6.989900   8.93167  11.93719  30.07461   69.2772  1729.415   -0.49436
6.989900   8.84556  12.02330  30.58347   68.8373  1707.523   -0.58177
6.989900   8.75944  12.10942  31.18864   68.3836  1685.086   -0.68408
6.989900   8.67333  12.19553  31.74565   67.9067  1661.664   -0.78209
6.989900   8.58722  12.28164  32.29850   67.4112  1637.506   -0.88153
6.989900   8.50111  12.36775  32.84718   66.8973  1612.632   -0.98234
6.989900   8.41500  12.45386  33.62135   66.3648  1587.063   -1.11853
6.989900   8.32889  12.53997  34.27514   65.8046  1560.380   -1.24006
6.989900   8.24278  12.62608  34.92290   65.2211  1532.834   -1.36329
6.989900   8.15667  12.71219  35.56419   64.6146  1504.456   -1.48809
6.989900   8.07056  12.79830  36.98149   63.9849  1475.275   -1.74113
6.989900   7.98444  12.88442  37.89689   63.2996  1443.845   -1.92025
6.989900   7.89833  12.97053  38.80209   62.5819  1411.290   -2.10232
6.989900   7.81222  13.05664  39.69711   61.8272  1377.455   -2.28734
6.989900   7.72611  13.14275  43.10958   60.8688  1335.079   -2.94977
6.989900   7.64000  13.22886  44.15832   59.9659  1295.766   -3.18664
6.998240   7.55528  13.31399  45.35014   59.0167  1255.069   -3.45825
7.006580   7.47055  13.39913  46.56603   58.0258  1213.279   -3.74207
7.031580   7.38835  13.48505  46.04096   56.8219  1163.458   -3.67787
7.056590   7.30614  13.57098  45.63165   55.7802  1121.186   -3.63167
7.098150   7.22917  13.65845  44.21944   54.5254  1071.311   -3.39428
7.139710   7.15220  13.74593  42.95539   53.4882  1030.942   -3.18556
7.197440   7.08358  13.83560  39.39707   52.3168   986.279   -2.57584
7.255160   7.01495  13.92528  37.40192   51.3629   950.644   -2.26774
7.327990   6.95823  14.01759  31.70259   50.2980   911.632   -1.42995
7.400820   6.90151  14.10990  27.87757   49.5710   885.471   -0.94830
7.486490   6.86057  14.20485  24.14238   48.9182   862.301   -0.53840
7.572150   6.81964  14.29979  20.46044   48.3950   843.954   -0.19087
7.666690   6.79805  14.39676  11.85519   48.0662   832.527    0.41472
7.761220   6.77646  14.49372   9.72715   47.9782   829.482    0.51373
7.858950   6.77646  14.59145  10.67356   48.0616   832.366    0.47350
7.956680   6.77646  14.68918  14.09529   48.3903   843.792    0.29586
8.051210   6.79805  14.78615  22.21483   49.0571   867.205   -0.33633
8.145750   6.81964  14.88312  33.77924   49.9137   897.754   -1.74305
8.231410   6.86057  14.97806  38.71968   50.9925   936.982   -2.50169
8.317080   6.90151  15.07301  43.80318   52.2334   983.139   -3.39004
8.389910   6.95823  15.16532  49.31175   53.5901  1034.872   -4.48034
8.462740   7.01495  15.25763  57.99339   55.4005  1105.975   -6.48045
8.520460   7.08358  15.34731  61.60959   57.1183  1175.624   -7.37711
8.578190   7.15220  15.43698  68.12429   59.1648  1261.379   -9.17319
8.619750   7.22917  15.52445  71.20801   61.1049  1345.458  -10.05096
8.661310   7.30614  15.61193  74.92607   63.3922  1448.072  -11.16420
8.686320   7.38835  15.69786  76.97263   65.4434  1543.299  -11.76930
8.711320   7.47055  15.78377  78.41725   67.7678  1654.873  -12.16892
8.719660   7.55528  15.86891  79.08863   69.8930  1760.298  -12.31108
8.728000   7.64000  15.95404  78.56542   71.9442  1865.134  -12.03709
8.728000   7.72691  16.04095  76.37996   74.2176  1984.873  -11.18314
8.728000   7.81382  16.12786  75.50485   76.1809  2091.270  -10.79616
8.728000   7.90073  16.21477  74.60659   78.0931  2197.577  -10.40501
8.728000   7.98764  16.30168  72.80544   79.9128  2301.183   -9.72696
8.728000   8.07455  16.38859  71.64325   81.7047  2405.539   -9.26438
8.728000   8.16145  16.47549  71.07374   83.4549  2509.702   -8.99365
8.728000   8.24836  16.56240  70.49033   85.1727  2614.083   -8.71983
8.728000   8.33527  16.64931  69.76802   86.8489  2717.982   -8.40499
8.728000   8.42218  16.73622  69.19387   88.5019  2822.429   -8.13733
8.728000   8.50909  16.82313  68.69844   90.1271  2927.040   -7.89490
8.728000   8.59600  16.91004  68.19375   91.7291  3032.024   -7.65044
8.728000   8.68291  16.99695  67.66590   93.3034  3136.990   -7.40019
8.728000   8.76982  17.08386  67.14732   94.8545  3242.158   -7.15375
8.728000   8.85673  17.17077  66.64262   96.3778  3347.131   -6.91276
8.728000   8.94364  17.25768  66.12867   97.8780  3452.143   -6.67016
8.728000   9.03055  17.34459  65.60083   99.3551  3557.119   -6.42473
8.728000   9.11745  17.43149  65.07298  100.8043  3661.648   -6.18092
8.728000   9.20436  17.51840  64.54051  102.2351  3766.327   -5.93688
8.728000   9.29127  17.60531  63.99877  103.6380  3870.405   -5.69201
8.728000   9.37818  17.69222  63.45241  105.0178  3974.150   -5.44742
8.728000   9.46509  17.77913  62.89678  106.3745  4077.492   -5.20193
8.728000   9.55200  17.86604  62.33653  107.7033  4180.003   -4.95725
8.728000   9.63891  17.95295  61.76701  109.0137  4282.332   -4.71158
8.728000   9.72582  18.03986  61.19287  110.2963  4383.690   -4.46694
8.728000   9.81273  18.12677  60.61409  111.5557  4484.372   -4.22311
8.728000   9.89964  18.21368  60.02605  112.7919  4584.315   -3.97895
8.728000   9.98655  18.30059  59.42876  114.0051  4683.457   -3.73458
8.728000  10.07350  18.38754  58.83146  115.1950  4781.737   -3.49254
8.728000  10.16040  18.47444  58.22490  116.3618  4879.096   -3.25049
8.728000  10.24730  18.56134  57.61371  117.5009  4975.084   -3.01009
8.728000  10.33420  18.64824  56.99327  118.6167  5070.027   -2.76992
8.728000  10.42110  18.73514  56.36819  119.7095  5163.871   -2.53125
8.728000  10.50800  18.82204  55.74311  120.7790  5256.559   -2.29532
8.728000  10.59490  18.90894  55.10414  121.8255  5348.039   -2.05878
8.728000  10.68180  18.99584  54.46517  122.8488  5438.258   -1.82515
8.728000  10.76870  19.08274  53.81694  123.8442  5526.752   -1.59263
8.728000  10.85560  19.16964  53.16871  124.8212  5614.295   -1.36279
8.728000  10.94250  19.25654  52.51122  125.7704  5700.006   -1.13426
8.728000  11.02950  19.34354  51.84910  126.6965  5784.253   -0.90786
8.728000  11.11640  19.43044  51.18698  127.5994  5866.989   -0.68472
8.728000  11.20330  19.51734  50.51560  128.4791  5948.168   -0.46280
8.728000  11.29020  19.60424  49.83959  129.3357  6027.747   -0.24325
8.728000  11.37710  19.69114  49.15895  130.1645  6105.249   -0.02653
8.728000  11.46400  19.77804  48.47831  130.9748  6181.497    0.18705
8.728000  11.55090  19.86494  47.78841  131.7573  6255.580    0.39865
8.728000  11.63780  19.95184  47.09850  132.5166  6327.893    0.60660
8.728000  11.72470  20.03874  46.39934  133.2528  6398.398    0.81277
8.728000  11.81160  20.12564  45.70157  133.9659  6467.059    1.01488
8.728000  11.89850  20.21254  44.99917  134.6558  6533.839    1.21413
8.728000  11.98550  20.29954  44.29167  135.3179  6598.252    1.41012
8.728000  12.07240  20.38644  43.58047  135.9615  6661.167    1.60331
8.728000  12.15930  20.47334  42.86834  136.5773  6721.645    1.79230
8.728000  12.24620  20.56024  42.15205  137.1700  6780.107    1.97808
8.728000  12.33310  20.64714  41.43159  137.7395  6836.525    2.16056
8.728000  12.42000  20.73404  40.70789  138.2859  6890.869    2.33952
8.728000  12.50690  20.82094  39.98372  138.8091  6943.112    2.51442
8.728000  12.59380  20.90784  39.25632  139.3092  6993.227    2.68570
8.728000  12.68070  20.99474  38.52521  139.7814  7040.724    2.85298
8.728000  12.76760  21.08164  37.79085  140.2352  7086.510    3.01695
8.728000  12.85450  21.16854  37.05697  140.6612  7129.627    3.17613
8.728000  12.94150  21.25554  36.31984  141.0686  7170.992    3.33192
8.728000  13.02840  21.34244  35.57993  141.4483  7209.645    3.48338
8.728000  13.11530  21.42934  34.83724  141.8048  7246.035    3.63087
8.728000  13.20220  21.51624  34.09502  142.1382  7280.145    3.77386
8.728000  13.28910  21.60314  33.35048  142.4484  7311.958    3.91275
8.728000  13.37600  21.69004  32.60363  142.7355  7341.459    4.04751
8.728000  13.46290  21.77694  31.85446  142.9994  7368.633    4.17809
8.728000  13.54980  21.86384  31.10668  143.2402  7393.468    4.30396
8.728000  13.63670  21.95074  30.35613  143.4578  7415.950    4.42567
8.728000  13.72360  22.03764  29.60464  143.6523  7436.069    4.54295
8.728000  13.81050  22.12454  28.85038  143.8236  7453.816    4.65602
8.728000  13.89750  22.21154  28.09843  143.9718  7469.182    4.76421
8.728000  13.98440  22.29844  27.34464  144.0968  7482.159    4.86803
8.728000  14.07130  22.38534  26.58991  144.1987  7492.742    4.96736
8.728000  14.15820  22.47224  25.83334  144.2774  7500.924    5.06229
8.728000  14.24510  22.55914  25.07907  144.3329  7506.702    5.15233
8.728000  14.33200  22.64604  24.32389  144.3653  7510.074    5.23786
8.728000  14.41890  22.73294  23.56824  144.3746  7511.038    5.31880
8.728000  14.50580  22.81984  22.81073  144.3653  7510.074    5.39573
8.728000  14.59270  22.90674  22.05647  144.3283  7506.221    5.46728
8.728000  14.67960  22.99364  21.30082  144.2727  7500.442    5.53477
8.728000  14.76650  23.08054  20.54610  144.1894  7491.779    5.59712
8.728000  14.85350  23.16754  19.78952  144.0922  7481.678    5.65587
8.728000  14.94040  23.25444  19.03711  143.9671  7468.702    5.70922
8.728000  15.02730  23.34134  18.28378  143.8190  7453.336    5.75806
8.728000  15.11420  23.42824  17.53183  143.6523  7436.069    5.80262
8.728000  15.20110  23.51514  16.77803  143.4625  7416.429    5.84274
8.728000  15.28800  23.60204  16.02933  143.2495  7394.424    5.87793
8.728000  15.37490  23.68894  15.27970  143.0133  7370.065    5.90865
8.728000  15.46180  23.77584  14.53238  142.7587  7343.841    5.93510
8.728000  15.54870  23.86274  13.78367  142.4808  7315.286    5.95713
8.728000  15.63560  23.94964  13.04006  142.1845  7284.889    5.97478
8.728000  15.72250  24.03654  12.29645  141.8604  7251.714    5.98756
8.728000  15.80950  24.12354  11.55562  141.5224  7217.199    5.99659
8.728000  15.89640  24.21044  10.81339  141.1566  7179.939    6.00085
8.728000  15.98330  24.29734  10.07719  140.7769  7141.366    6.00127
8.728000  16.07020  24.38424   9.34099  140.3695  7100.087    5.99692
8.728000  16.15710  24.47114   8.60849  139.9435  7057.059    5.98851
8.728000  16.24400  24.55804   7.87460  139.4990  7012.300    5.97627
8.728000  16.33090  24.64494   7.14766  139.0313  6965.363    5.95952
8.728000  16.41780  24.73184   6.42025  138.5452  6916.734    5.93897
8.728000  16.50470  24.81874   5.69747  138.0405  6866.434    5.91450
8.728000  16.59160  24.90564   4.97377  137.5126  6814.022    5.88591
8.728000  16.67850  24.99254   4.25674  136.9663  6759.982    5.85344
8.728000  16.76550  25.07954   3.52424  136.4014  6704.337    5.81755
8.728000  16.85240  25.16644   2.80484  135.8133  6646.656    5.77734
8.728000  16.93930  25.25334   2.09286  135.2068  6587.419    5.73341
8.728000  17.02620  25.34024   1.38939  134.5817  6526.651    5.68585
8.728000  17.11310  25.42714   0.69041  133.9335  6463.930    5.63439
8.728000  17.20000  25.51404   0.00000  133.2714  6400.177    5.57986
8.812000  17.20000  25.59804   0.00821  133.2714  6400.177    5.57986
8.896000  17.20000  25.68204   0.00692  133.2714  6400.177    5.57986
8.980000  17.20000  25.76604   0.01038  133.2714  6400.177    5.57986
9.064000  17.20000  25.85004   0.01384  133.2714  6400.177    5.57986
9.148000  17.20000  25.93404   0.00264  133.2714  6400.177    5.57986
9.232000  17.20000  26.01804   0.00176  133.2714  6400.177    5.57986
9.316000  17.20000  26.10204   0.00093  133.2714  6400.177    5.57986
9.400000  17.20000  26.18604   0.00000  133.2714  6400.177    5.57986
EndData
EndFile
